#           x             T        mag(U)             p
       -4.995       348.432   9.51967e-12        100000
       -4.985       348.432   9.01933e-12        100000
       -4.975       348.432   8.02155e-12        100000
       -4.965       348.432   7.43514e-12        100000
       -4.955       348.432   6.40966e-12        100000
       -4.945       348.432   7.61603e-12        100000
       -4.935       348.432   6.66494e-12        100000
       -4.925       348.432   5.40022e-12        100000
       -4.915       348.432   4.66064e-12        100000
       -4.905       348.432   7.40305e-12        100000
       -4.895       348.432   4.92905e-12        100000
       -4.885       348.432   5.28498e-12        100000
       -4.875       348.432   5.04137e-12        100000
       -4.865       348.432   5.97642e-12        100000
       -4.855       348.432   3.87876e-12        100000
       -4.845       348.432    4.0188e-12        100000
       -4.835       348.432    2.4317e-12        100000
       -4.825       348.432   3.30402e-12        100000
       -4.815       348.432   2.56882e-12        100000
       -4.805       348.432   2.65197e-12        100000
       -4.795       348.432   1.39309e-12        100000
       -4.785       348.432    2.9831e-12        100000
       -4.775       348.432   2.31792e-12        100000
       -4.765       348.432   2.34855e-12        100000
       -4.755       348.432   1.64253e-12        100000
       -4.745       348.432   2.42003e-12        100000
       -4.735       348.432   1.23263e-12        100000
       -4.725       348.432   2.01596e-12        100000
       -4.715       348.432   2.86203e-12        100000
       -4.705       348.432   1.08092e-12        100000
       -4.695       348.432   2.22894e-12        100000
       -4.685       348.432   2.92913e-12        100000
       -4.675       348.432   2.86786e-12        100000
       -4.665       348.432   2.62134e-12        100000
       -4.655       348.432   3.02686e-12        100000
       -4.645       348.432    5.6307e-13        100000
       -4.635       348.432   9.86101e-13        100000
       -4.625       348.432   7.43952e-14        100000
       -4.615       348.432   2.34126e-12        100000
       -4.605       348.432   1.98387e-12        100000
       -4.595       348.432   3.70371e-12        100000
       -4.585       348.432   2.72053e-12        100000
       -4.575       348.432   1.89197e-12        100000
       -4.565       348.432   4.52206e-13        100000
       -4.555       348.432   3.13627e-13        100000
       -4.545       348.432   1.12468e-12        100000
       -4.535       348.432   4.04068e-12        100000
       -4.525       348.432     3.358e-12        100000
       -4.515       348.432   4.70149e-12        100000
       -4.505       348.432   5.01074e-12        100000
       -4.495       348.432   4.57895e-12        100000
       -4.485       348.432   3.93711e-12        100000
       -4.475       348.432   3.77811e-12        100000
       -4.465       348.432   3.27777e-12        100000
       -4.455       348.432   1.33328e-12        100000
       -4.445       348.432   3.01228e-12        100000
       -4.435       348.432   3.71393e-12        100000
       -4.425       348.432   2.52068e-12        100000
       -4.415       348.432   8.44604e-13        100000
       -4.405       348.432   1.41497e-12        100000
       -4.395       348.432   1.09113e-12        100000
       -4.385       348.432   1.22825e-12        100000
       -4.375       348.432   2.71761e-12        100000
       -4.365       348.432   1.46019e-12        100000
       -4.355       348.432   2.49151e-12        100000
       -4.345       348.432   1.04883e-12        100000
       -4.335       348.432   1.85842e-12        100000
       -4.325       348.432   1.06487e-12        100000
       -4.315       348.432   1.21366e-12        100000
       -4.305       348.432   8.82531e-13        100000
       -4.295       348.432   1.01382e-12        100000
       -4.285       348.432   2.43608e-13        100000
       -4.275       348.432   1.87009e-12        100000
       -4.265       348.432   9.77349e-13        100000
       -4.255       348.432   3.56076e-12        100000
       -4.245       348.432   1.53604e-12        100000
       -4.235       348.432   1.80153e-12        100000
       -4.225       348.432   1.49228e-12        100000
       -4.215       348.432   2.85765e-12        100000
       -4.205       348.432   1.59147e-12        100000
       -4.195       348.432   1.98825e-12        100000
       -4.185       348.432   3.69934e-12        100000
       -4.175       348.432   5.89327e-12        100000
       -4.165       348.432   7.61311e-12        100000
       -4.155       348.432   7.26885e-12        100000
       -4.145       348.432    8.8399e-12        100000
       -4.135       348.432   8.17618e-12        100000
       -4.125       348.432   9.60865e-12        100000
       -4.115       348.432   9.33149e-12        100000
       -4.105       348.432   1.10076e-11        100000
       -4.095       348.432   1.03307e-11        100000
       -4.085       348.432   1.21629e-11        100000
       -4.075       348.432   1.05233e-11        100000
       -4.065       348.432   1.20681e-11        100000
       -4.055       348.432    1.2141e-11        100000
       -4.045       348.432   1.30877e-11        100000
       -4.035       348.432    1.1893e-11        100000
       -4.025       348.432   1.21819e-11        100000
       -4.015       348.432   1.07494e-11        100000
       -4.005       348.432   1.28441e-11        100000
       -3.995       348.432   1.15692e-11        100000
       -3.985       348.432   1.18084e-11        100000
       -3.975       348.432   1.23394e-11        100000
       -3.965       348.432   1.19966e-11        100000
       -3.955       348.432   1.13329e-11        100000
       -3.945       348.432     1.299e-11        100000
       -3.935       348.432   1.08077e-11        100000
       -3.925       348.432   1.16961e-11        100000
       -3.915       348.432   9.09372e-12        100000
       -3.905       348.432   9.00474e-12        100000
       -3.895       348.432   6.89396e-12        100000
       -3.885       348.432   6.92313e-12        100000
       -3.875       348.432   5.43377e-12        100000
       -3.865       348.432   6.76267e-12        100000
       -3.855       348.432   5.00782e-12        100000
       -3.845       348.432   5.60736e-12        100000
       -3.835       348.432   3.55784e-12        100000
       -3.825       348.432   3.56951e-12        100000
       -3.815       348.432   4.39807e-12        100000
       -3.805       348.432   4.57895e-12        100000
       -3.795       348.432   5.39584e-12        100000
       -3.785       348.432   4.36306e-12        100000
       -3.775       348.432   4.21573e-12        100000
       -3.765       348.432   3.88606e-12        100000
       -3.755       348.432    2.7322e-12        100000
       -3.745       348.432   2.01305e-12        100000
       -3.735       348.432   3.70955e-12        100000
       -3.725       348.432   3.13043e-12        100000
       -3.715       348.432   1.42955e-12        100000
       -3.705       348.432   2.46963e-12        100000
       -3.695       348.432   3.56951e-12        100000
       -3.685       348.432   2.19685e-12        100000
       -3.675       348.432   4.59646e-12        100000
       -3.665       348.432   2.47109e-12        100000
       -3.655       348.432   3.09542e-12        100000
       -3.645       348.432   1.51854e-12        100000
       -3.635       348.432   1.22096e-12        100000
       -3.625       348.432   8.02301e-13        100000
       -3.615       348.432   1.78986e-12        100000
       -3.605       348.432   1.76506e-12        100000
       -3.595       348.432   1.88468e-12        100000
       -3.585       348.432   2.95247e-12        100000
       -3.575       348.432   3.14064e-12        100000
       -3.565       348.432   3.60744e-12        100000
       -3.555       348.432   3.47032e-12        100000
       -3.545       348.432   4.39369e-12        100000
       -3.535       348.432   2.99915e-12        100000
       -3.525       348.432   3.53888e-12        100000
       -3.515       348.432   3.77665e-12        100000
       -3.505       348.432   3.14794e-12        100000
       -3.495       348.432   2.56299e-12        100000
       -3.485       348.432   2.92329e-12        100000
       -3.475       348.432   3.21942e-12        100000
       -3.465       348.432   2.70448e-12        100000
       -3.455       348.432   2.67093e-12        100000
       -3.445       348.432   2.00867e-12        100000
       -3.435       348.432   1.86426e-12        100000
       -3.425       348.432   2.58049e-12        100000
       -3.415       348.432   2.71761e-12        100000
       -3.405       348.432   2.93788e-12        100000
       -3.395       348.432   1.88322e-12        100000
       -3.385       348.432    1.5375e-12        100000
       -3.375       348.432    9.8756e-13        100000
       -3.365       348.432   1.35808e-12        100000
       -3.355       348.432   2.93205e-13        100000
       -3.345       348.432   1.44852e-12        100000
       -3.335       348.432    1.6294e-12        100000
       -3.325       348.432   2.30042e-12        100000
       -3.315       348.432   3.69204e-12        100000
       -3.305       348.432   4.13404e-12        100000
       -3.295       348.432   4.73504e-12        100000
       -3.285       348.432   4.29742e-12        100000
       -3.275       348.432   6.37173e-12        100000
       -3.265       348.432   5.47753e-12        100000
       -3.255       348.432   6.08144e-12        100000
       -3.245       348.432   3.77811e-12        100000
       -3.235       348.432    4.3689e-12        100000
       -3.225       348.432   4.89404e-12        100000
       -3.215       348.432   8.59046e-12        100000
       -3.205       348.432   1.57266e-11        100000
       -3.195       348.432   2.97508e-11        100000
       -3.185       348.432   5.71778e-11        100000
       -3.175       348.432   1.13005e-10        100000
       -3.165       348.432   2.20478e-10        100000
       -3.155       348.432   4.33396e-10        100000
       -3.145       348.432    8.4502e-10        100000
       -3.135       348.432   1.63769e-09        100000
       -3.125       348.432   3.15477e-09        100000
       -3.115       348.432   6.03963e-09        100000
       -3.105       348.432   1.14904e-08        100000
       -3.095       348.432   2.17225e-08        100000
       -3.085       348.432   4.07967e-08        100000
       -3.075       348.432   7.61144e-08        100000
       -3.065       348.432   1.41051e-07        100000
       -3.055       348.432   2.59616e-07        100000
       -3.045       348.432   4.74555e-07        100000
       -3.035       348.432     8.614e-07        100000
       -3.025       348.432   1.55253e-06        100000
       -3.015       348.432   2.77812e-06        100000
       -3.005       348.432   4.93501e-06        100000
       -2.995       348.432   8.70167e-06        100000
       -2.985       348.432    1.5228e-05        100000
       -2.975       348.432   2.64459e-05        100000
       -2.965       348.432   4.55709e-05        100000
       -2.955       348.432   7.79069e-05        100000
       -2.945       348.432   0.000132117        100000
       -2.935       348.432   0.000222215       99999.9
       -2.925       348.432   0.000370636       99999.9
       -2.915       348.432    0.00061293       99999.8
       -2.905       348.432    0.00100481       99999.6
       -2.895       348.431    0.00163263       99999.4
       -2.885       348.431    0.00262865         99999
       -2.875        348.43    0.00419301       99998.4
       -2.865        348.43    0.00662466       99997.5
       -2.855       348.428     0.0103643       99996.2
       -2.845       348.426     0.0160521       99994.1
       -2.835       348.423     0.0246045       99990.9
       -2.825       348.418     0.0373115       99986.2
       -2.815       348.411     0.0559574       99979.2
       -2.805       348.401     0.0829628       99969.2
       -2.795       348.387      0.121541       99954.9
       -2.785       348.367      0.175851       99934.7
       -2.775       348.339      0.251127       99906.7
       -2.765       348.301      0.353728       99868.5
       -2.755        348.25       0.49104       99817.3
       -2.745       348.183      0.671139       99750.1
       -2.735       348.096      0.902027       99663.9
       -2.725       347.988       1.19018         99556
       -2.715       347.858       1.53839       99425.5
       -2.705       347.705       1.94537       99273.2
       -2.695       347.532       2.40855       99100.3
       -2.685       347.338       2.92587       98907.6
       -2.675       347.125       3.49526         98696
       -2.665       346.894       4.11409       98466.4
       -2.655       346.646       4.77926       98220.4
       -2.645       346.382       5.48736       97959.1
       -2.635       346.103       6.23486       97683.9
       -2.625       345.811       7.01825       97396.4
       -2.615       345.507       7.83412       97097.9
       -2.605       345.193       8.67927       96789.5
       -2.595       344.869       9.55074       96472.5
       -2.585       344.536       10.4458       96147.9
       -2.575       344.196       11.3621       95816.6
       -2.565       343.849       12.2974       95479.6
       -2.555       343.496       13.2498       95137.5
       -2.545       343.138       14.2175         94791
       -2.535       342.775       15.1991       94440.7
       -2.525       342.407       16.1931       94087.2
       -2.515       342.035       17.1985       93730.8
       -2.505        341.66       18.2141         93372
       -2.495       341.282        19.239       93011.1
       -2.485         340.9       20.2725       92648.5
       -2.475       340.516       21.3137       92284.4
       -2.465        340.13        22.362       91919.1
       -2.455       339.742       23.4169       91552.8
       -2.445       339.351       24.4778       91185.7
       -2.435       338.959       25.5443       90817.9
       -2.425       338.565       26.6159       90449.7
       -2.415        338.17       27.6923       90081.2
       -2.405       337.773       28.7731       89712.4
       -2.395       337.375       29.8582       89343.6
       -2.385       336.976        30.947       88974.8
       -2.375       336.576       32.0395       88606.1
       -2.365       336.175       33.1354       88237.5
       -2.355       335.772       34.2345       87869.3
       -2.345       335.369       35.3366       87501.3
       -2.335       334.966       36.4415       87133.8
       -2.325       334.561       37.5491       86766.7
       -2.315       334.156       38.6593       86400.1
       -2.305        333.75       39.7718       86034.1
       -2.295       333.344       40.8866       85668.7
       -2.285       332.937       42.0036       85303.9
       -2.275        332.53       43.1226       84939.8
       -2.265       332.122       44.2436       84576.3
       -2.255       331.714       45.3664       84213.7
       -2.245       331.305       46.4911       83851.8
       -2.235       330.896       47.6174       83490.7
       -2.225       330.487       48.7454       83130.4
       -2.215       330.078       49.8749         82771
       -2.205       329.668        51.006       82412.4
       -2.195       329.258       52.1384       82054.7
       -2.185       328.847       53.2723       81697.9
       -2.175       328.437       54.4075       81342.1
       -2.165       328.026       55.5439       80987.2
       -2.155       327.615       56.6816       80633.2
       -2.145       327.204       57.8204       80280.2
       -2.135       326.793       58.9604       79928.2
       -2.125       326.381       60.1015       79577.1
       -2.115        325.97       61.2436       79227.1
       -2.105       325.558       62.3868       78878.1
       -2.095       325.146       63.5309       78530.1
       -2.085       324.734        64.676       78183.1
       -2.075       324.323        65.822       77837.2
       -2.065       323.911       66.9688       77492.3
       -2.055       323.499       68.1165       77148.5
       -2.045       323.087       69.2651       76805.8
       -2.035       322.675       70.4144       76464.1
       -2.025       322.263       71.5645       76123.5
       -2.015       321.851       72.7153         75784
       -2.005       321.438       73.8668       75445.6
       -1.995       321.026        75.019       75108.2
       -1.985       320.614       76.1719         74772
       -1.975       320.202       77.3255       74436.8
       -1.965       319.791       78.4796       74102.8
       -1.955       319.379       79.6344       73769.9
       -1.945       318.967       80.7897       73438.1
       -1.935       318.555       81.9456       73107.4
       -1.925       318.143       83.1021       72777.9
       -1.915       317.732        84.259       72449.4
       -1.905        317.32       85.4165       72122.1
       -1.895       316.909       86.5744       71795.9
       -1.885       316.497       87.7329       71470.9
       -1.875       316.086       88.8918         71147
       -1.865       315.675       90.0511       70824.2
       -1.855       315.264       91.2108       70502.6
       -1.845       314.853        92.371         70182
       -1.835       314.442       93.5315       69862.7
       -1.825       314.032       94.6924       69544.5
       -1.815       313.621       95.8537       69227.4
       -1.805       313.211       97.0154       68911.4
       -1.795         312.8       98.1773       68596.6
       -1.785        312.39       99.3396         68283
       -1.775        311.98       100.502       67970.4
       -1.765       311.571       101.665       67659.1
       -1.755       311.161       102.828       67348.8
       -1.745       310.751       103.992       67039.8
       -1.735       310.342       105.156       66731.8
       -1.725       309.933        106.32         66425
       -1.715       309.524       107.484       66119.4
       -1.705       309.115       108.648       65814.8
       -1.695       308.707       109.813       65511.5
       -1.685       308.298       110.978       65209.2
       -1.675        307.89       112.143       64908.1
       -1.665       307.482       113.309       64608.2
       -1.655       307.074       114.474       64309.4
       -1.645       306.667        115.64       64011.7
       -1.635       306.259       116.806       63715.1
       -1.625       305.852       117.972       63419.7
       -1.615       305.445       119.138       63125.4
       -1.605       305.039       120.305       62832.3
       -1.595       304.632       121.471       62540.3
       -1.585       304.226       122.638       62249.4
       -1.575        303.82       123.805       61959.6
       -1.565       303.414       124.971         61671
       -1.555       303.008       126.139       61383.5
       -1.545       302.603       127.306       61097.1
       -1.535       302.197       128.473       60811.8
       -1.525       301.792        129.64       60527.6
       -1.515       301.388       130.808       60244.6
       -1.505       300.983       131.975       59962.7
       -1.495       300.579       133.143       59681.9
       -1.485       300.175        134.31       59402.1
       -1.475       299.771       135.478       59123.5
       -1.465       299.368       136.646       58846.1
       -1.455       298.965       137.813       58569.8
       -1.445       298.562       138.981       58294.4
       -1.435       298.159       140.149       58020.1
       -1.425       297.756       141.317       57747.1
       -1.415       297.355       142.485       57475.3
       -1.405       296.953       143.653       57204.5
       -1.395       296.551       144.821       56934.4
       -1.385       296.149       145.988       56665.4
       -1.375       295.748       147.156       56397.9
       -1.365       295.348       148.325         56132
       -1.355       294.948       149.493       55866.7
       -1.345       294.546        150.66       55601.5
       -1.335       294.145       151.827       55337.4
       -1.325       293.746       152.995       55075.7
       -1.315       293.349       154.165         54816
       -1.305        292.95       155.334       54556.2
       -1.295       292.548         156.5       54295.1
       -1.285       292.146       157.665       54035.2
       -1.275        291.75       158.834       53779.6
       -1.265       291.357       160.008       53527.1
       -1.255        290.96       161.179       53272.5
       -1.245       290.554       162.342       53013.5
       -1.235       290.149       163.504       52755.9
       -1.225       289.756       164.676       52507.1
       -1.215       289.371       165.861       52263.6
       -1.205       288.976       167.041       52014.1
       -1.195       288.557       168.202       51751.5
       -1.185       288.138       169.358       51490.5
       -1.175       287.749       170.543       51248.7
       -1.165       287.378       171.759       51017.4
       -1.155       286.985        172.97       50772.9
       -1.145       286.531       174.133       50492.8
       -1.135       286.067       175.284       50211.3
       -1.125       285.682       176.501       49976.3
       -1.115       285.331       177.792       49760.1
       -1.105       284.954       179.081       49527.7
       -1.095       284.433       180.255       49210.4
       -1.085       283.855       181.374       48871.2
       -1.075       283.487       182.628       48651.2
       -1.065       283.166       183.998       48453.2
       -1.055       282.832       185.364       48250.8
       -1.045       282.326       186.516         47941
       -1.035       281.589       187.517       47523.5
       -1.025       281.273       188.711       47337.8
       -1.015       281.008       190.049         47172
       -1.005       280.694       191.373       46988.3
       -0.995       280.376       192.544       46791.3
       -0.985       279.592       193.491       46347.3
       -0.975       279.214       194.564         46138
       -0.965       279.004       195.859       46005.3
       -0.955       278.685       197.145       45818.3
       -0.945       278.418       198.369       45663.7
       -0.935       277.856       199.378       45334.2
       -0.925       277.273       200.349       45022.1
       -0.915       277.072       201.577       44900.9
       -0.905       276.834       202.869       44754.8
       -0.895       276.481       204.087       44558.2
       -0.885        276.07        205.13       44319.4
       -0.875       275.391       206.063       43955.4
       -0.865       275.132       207.212       43812.6
       -0.855       274.964       208.551         43708
       -0.845        274.65       209.832       43530.4
       -0.835       274.206       210.875       43281.4
       -0.825       273.441       211.741       42877.5
       -0.815       273.137       212.823       42715.4
       -0.805       272.988       214.174         42621
       -0.795       272.747       215.517       42482.7
       -0.785        272.42       216.686       42302.6
       -0.775       271.618       217.577       41872.7
       -0.765       271.071       218.551       41596.7
       -0.755       270.891       219.895       41486.4
       -0.745       270.733       221.324         41389
       -0.735       270.433        222.62       41230.7
       -0.725       270.027       223.596       41009.6
       -0.715       269.037         224.3         40509
       -0.705        268.67       225.242       40322.8
       -0.695       268.517       226.551       40225.5
       -0.685       268.386       227.945       40146.4
       -0.675       268.156       229.206       40010.9
       -0.665       267.559       230.282       39713.9
       -0.655       267.306       231.448       39591.3
       -0.645       267.214       232.739       39535.6
       -0.635       266.683       233.751       39244.6
       -0.625       265.827       234.572       38839.6
       -0.615       265.537       235.624         38690
       -0.605       265.272       236.841       38547.1
       -0.595       264.986       238.117       38404.2
       -0.585       264.851       239.489       38331.6
       -0.575       264.614       240.685       38180.8
       -0.565       263.659       241.566       37716.7
       -0.555       263.308       242.548       37547.3
       -0.545       263.133       243.751       37452.4
       -0.535       262.974       244.994       37376.8
       -0.525       262.834       246.127       37300.1
       -0.515       262.048       246.951       36917.3
       -0.505       261.521       247.789       36677.7
       -0.495       261.366       248.955       36587.8
       -0.485       261.279        250.31       36532.5
       -0.475       261.173       251.626       36459.8
       -0.465       260.368       252.689       36078.3
       -0.455        259.85       253.771       35854.8
       -0.445       259.653       255.086       35757.9
       -0.435       259.529       256.428         35696
       -0.425       259.076       257.449       35460.8
       -0.415       258.126       258.222       35039.9
       -0.405       257.919        259.25       34930.4
       -0.395        257.87       260.525       34883.2
       -0.385       257.678       261.648       34762.5
       -0.375       256.916       262.537       34425.9
       -0.365       256.616       263.539       34299.5
       -0.355       256.449        264.73       34218.9
       -0.345       256.139       265.908       34079.1
       -0.335       255.803        266.96       33926.4
       -0.325       255.042        267.79       33579.5
       -0.315       254.584       268.695       33378.6
       -0.305       254.458       269.912       33300.4
       -0.295       254.355       271.219         33233
       -0.285       254.091       272.407         33098
       -0.275       253.699       273.477       32927.2
       -0.265       253.555         274.6       32861.9
       -0.255       253.499       275.708         32827
       -0.245       252.814       276.488       32514.4
       -0.235       252.063       277.116       32216.3
       -0.225       251.891       277.903       32139.6
       -0.215       251.847       278.745         32118
       -0.205       251.857       279.589       32119.2
       -0.195       251.817       280.268       32076.1
       -0.185       251.227       280.704       31811.7
       -0.175       251.052         281.2       31728.2
       -0.165        251.03       281.878       31702.9
       -0.155       251.028       282.611       31696.2
       -0.145       251.052       283.297       31702.7
       -0.135       250.651       283.743       31525.2
       -0.125       250.258       284.112       31381.1
       -0.115       250.209       284.658       31360.5
       -0.105         250.2       285.302       31357.9
       -0.095       250.234       285.911         31367
       -0.085       249.928       286.317       31223.7
       -0.075       249.689       286.644       31126.7
       -0.065       249.681       287.074       31114.9
       -0.055       249.715       287.544       31122.5
       -0.045       249.708       287.922       31100.8
       -0.035       249.362       288.151       30950.3
       -0.025       249.265       288.414       30913.3
       -0.015       249.238       288.784       30906.3
       -0.005       249.253       289.182       30922.6
        0.005       249.153       289.463       30879.3
        0.015       248.782       289.615       30739.5
        0.025       248.722       289.839       30712.8
        0.035       248.725       290.142       30703.7
        0.045       248.738       290.445         30699
        0.055        248.75       290.734       30691.8
        0.065       248.791       291.026       30698.9
        0.075       248.803       291.244       30692.6
        0.085       248.596       291.362       30608.1
        0.095       248.501       291.503       30577.6
        0.105       248.483       291.693       30575.2
        0.115       248.476       291.903       30578.5
        0.125       248.497       292.095       30589.7
        0.135       248.377       292.207         30538
        0.145       248.255       292.284       30491.6
        0.155       248.253       292.413         30488
        0.165       248.258       292.571       30488.8
        0.175       248.288       292.729       30500.1
        0.185       248.233       292.825       30473.3
        0.195        248.12       292.881         30431
        0.205       248.104       292.972       30424.8
        0.215       248.112       293.094       30427.8
        0.225       248.141       293.208         30437
        0.235       248.078        293.27       30406.4
        0.245       248.017       293.316       30381.2
        0.255       248.018       293.394       30380.1
        0.265       248.045       293.493       30390.7
        0.275       248.038       293.559       30385.2
        0.285       247.946       293.584       30349.3
        0.295       247.925       293.622       30341.3
        0.305       247.925       293.681       30339.3
        0.315       247.934       293.751       30341.4
        0.325       247.973       293.827       30354.3
        0.335       247.969       293.872       30347.6
        0.345       247.908       293.883       30321.6
        0.355       247.894       293.903       30316.6
        0.365       247.889       293.943       30316.4
        0.375       247.911       293.996       30328.6
        0.385       247.914       294.037       30332.7
        0.395       247.864       294.045       30315.4
        0.405       247.831       294.047       30305.5
        0.415       247.827       294.069       30305.1
        0.425       247.855       294.108       30316.7
        0.435       247.874       294.144       30322.4
        0.445       247.855       294.152       30312.1
        0.455       247.839       294.151       30303.5
        0.465       247.845       294.165       30304.5
        0.475       247.877       294.192       30315.7
        0.485       247.884       294.207       30317.3
        0.495        247.86       294.201       30307.2
        0.505       247.845       294.193       30302.4
        0.515       247.857       294.204       30308.9
        0.525       247.881       294.221       30318.9
        0.535       247.875       294.222         30317
        0.545       247.847       294.206       30306.6
        0.555       247.844         294.2       30306.2
        0.565       247.874       294.212       30318.5
        0.575       247.889       294.222         30323
        0.585       247.885       294.214       30319.7
        0.595       247.866       294.194       30311.2
        0.605       247.863       294.176       30308.7
        0.615       247.862       294.169       30307.5
        0.625       247.898       294.181       30322.7
        0.635       247.928       294.196       30333.5
        0.645       247.928       294.188       30333.1
        0.655       247.898        294.16       30321.4
        0.665       247.882       294.136       30316.7
        0.675       247.905       294.137       30328.3
        0.685       247.926       294.144       30337.6
        0.695       247.923       294.136       30338.1
        0.705       247.903       294.115       30331.8
        0.715       247.891       294.097       30329.2
        0.725       247.906       294.095       30337.1
        0.735       247.916       294.096         30342
        0.745       247.915       294.087       30341.8
        0.755       247.903       294.071         30337
        0.765       247.902       294.061       30336.7
        0.775       247.926       294.064       30345.5
        0.785        247.94       294.067       30349.4
        0.795       247.942       294.058       30348.8
        0.805       247.929        294.04       30341.8
        0.815       247.928       294.028       30340.5
        0.825       247.949       294.029       30348.2
        0.835       247.963       294.032       30351.9
        0.845       247.966       294.026       30352.5
        0.855       247.964       294.016       30350.9
        0.865       247.959       294.004       30348.5
        0.875       247.964       293.998         30350
        0.885       247.976       293.996       30354.2
        0.895       247.978       293.991       30354.3
        0.905       247.972       293.981       30351.2
        0.915       247.971       293.973       30350.7
        0.925       247.987       293.975       30356.4
        0.935       247.997       293.977       30359.4
        0.945       247.997        293.97       30358.2
        0.955       247.985       293.957       30352.4
        0.965       247.985        293.95         30352
        0.975       248.006       293.955       30359.4
        0.985       248.017       293.958       30362.3
        0.995       248.011       293.949       30358.1
        1.005       248.002       293.936       30353.3
        1.015       248.007       293.932       30354.4
        1.025       248.027       293.937       30360.5
        1.035       248.035        293.94         30362
        1.045       248.036       293.935       30360.5
        1.055       248.029       293.925       30356.3
        1.065       248.031       293.919       30355.6
        1.075       248.042        293.92       30358.7
        1.085       248.053       293.922       30361.4
        1.095       248.053       293.917       30360.1
        1.105       248.046       293.908       30356.3
        1.115       248.046       293.903       30356.2
        1.125       248.058       293.905       30360.5
        1.135       248.062       293.905         30362
        1.145       248.054       293.897       30358.5
        1.155       248.046       293.888       30355.4
        1.165       248.049       293.886       30357.1
        1.175       248.061        293.89       30361.4
        1.185       248.062       293.888       30361.2
        1.195       248.052        293.88       30356.1
        1.205       248.051       293.874       30354.9
        1.215       248.065       293.878       30358.8
        1.225       248.079       293.883         30362
        1.235        248.08       293.879       30359.6
        1.245       248.075        293.87       30354.9
        1.255        248.08       293.865       30354.3
        1.265       248.096       293.867       30357.5
        1.275       248.111       293.871       30360.4
        1.285       248.112       293.866       30358.2
        1.295       248.107       293.857       30353.8
        1.305       248.111       293.852       30353.5
        1.315       248.127       293.855       30357.7
        1.325       248.136       293.856       30359.6
        1.335       248.131       293.849       30355.4
        1.345       248.127       293.839       30351.9
        1.355       248.133       293.837       30352.9
        1.365       248.151       293.841         30358
        1.375       248.157       293.841       30358.1
        1.385       248.148       293.831       30352.4
        1.395       248.149       293.822       30350.5
        1.405       248.161       293.823       30353.2
        1.415       248.179       293.828       30357.5
        1.425       248.181       293.824       30355.5
        1.435       248.174       293.813       30349.9
        1.445       248.178       293.806       30348.9
        1.455       248.195       293.808       30352.7
        1.465       248.213       293.812       30356.1
        1.475       248.215       293.807       30353.4
        1.485       248.212       293.796       30348.7
        1.495       248.219        293.79       30347.8
        1.505       248.235        293.79       30350.2
        1.515       248.254       293.794       30353.7
        1.525       248.264       293.791       30352.9
        1.535       248.264       293.782       30348.3
        1.545       248.273       293.775       30347.2
        1.555        248.29       293.775         30349
        1.565        248.31       293.777       30351.6
        1.575       248.321       293.773       30350.5
        1.585       248.324       293.765       30346.6
        1.595       248.335        293.76         30346
        1.605       248.355       293.761       30348.6
        1.615       248.372       293.762       30350.5
        1.625       248.378       293.756       30347.4
        1.635       248.382       293.747       30344.1
        1.645       248.396       293.744       30344.5
        1.655        248.42       293.747       30348.4
        1.665       248.438       293.747       30348.9
        1.675       248.444       293.739       30344.4
        1.685       248.457       293.731       30342.2
        1.695       248.481       293.729       30343.4
        1.705       248.514       293.731       30346.8
        1.715       248.541        293.73       30346.6
        1.725       248.558       293.722       30342.4
        1.735       248.585       293.715       30340.9
        1.745        248.62       293.714       30342.5
        1.755       248.659       293.715       30345.1
        1.765       248.689       293.712       30343.7
        1.775        248.71       293.703       30339.5
        1.785       248.741       293.699       30339.1
        1.795       248.783       293.702       30342.7
        1.805        248.82       293.703         30344
        1.815       248.844       293.695       30338.9
        1.825       248.875       293.687       30335.9
        1.835       248.928       293.689       30338.7
        1.845       248.993       293.696       30343.3
        1.855        249.05       293.694       30341.2
        1.865       249.106       293.684       30334.3
        1.875       249.191       293.681       30333.4
        1.885       249.313        293.69       30338.7
        1.895       249.459       293.702       30341.8
        1.905       249.629       293.704       30338.2
        1.915       249.855       293.705       30332.8
        1.925       250.189       293.715       30332.7
        1.935       250.674       293.738       30337.5
        1.945       251.356       293.764       30339.7
        1.955       252.314       293.786       30336.5
        1.965       253.671        293.81       30332.1
        1.975       255.592       293.844       30332.8
        1.985       258.248       293.886       30337.3
        1.995       261.818       293.923       30337.8
        2.005       266.511       293.947       30332.9
        2.015       272.558       293.962         30330
        2.025        280.16       293.972       30331.5
        2.035       289.452       293.966       30334.3
        2.045        300.46       293.929         30331
        2.055       313.105       293.861       30325.5
        2.065       327.156       293.775       30324.9
        2.075       342.144       293.676       30327.3
        2.085        357.35       293.563       30327.9
        2.095       371.793       293.437       30323.8
        2.105        384.28       293.322         30323
        2.115       393.444       293.251       30324.4
        2.125       398.448       293.268       30331.2
        2.135       400.041       293.359         30335
        2.145       400.234       293.456       30333.2
        2.155       400.218       293.518       30328.2
        2.165       400.162       293.548       30327.3
        2.175       400.027       293.567       30327.6
        2.185       399.795       293.578       30328.8
        2.195       399.467       293.581       30327.2
        2.205       399.092       293.579       30324.8
        2.215        398.74       293.581       30324.6
        2.225       398.467       293.586       30325.9
        2.235       398.297       293.589       30326.7
        2.245       398.214       293.582       30324.4
        2.255       398.187       293.572       30322.6
        2.265       398.184       293.567       30322.9
        2.275       398.189       293.567       30324.7
        2.285       398.188       293.564       30324.5
        2.295       398.175       293.555       30321.7
        2.305       398.168       293.547       30320.7
        2.315       398.167       293.546       30321.6
        2.325       398.168       293.548       30323.1
        2.335       398.159       293.545       30322.6
        2.345       398.138       293.537       30319.9
        2.355       398.124       293.532       30319.3
        2.365       398.117       293.532       30320.4
        2.375       398.112       293.533       30321.6
        2.385       398.098       293.529       30320.5
        2.395       398.079       293.521         30318
        2.405       398.071       293.516       30317.6
        2.415        398.07       293.516       30318.5
        2.425        398.07       293.517       30319.5
        2.435       398.065       293.513       30318.9
        2.445       398.055       293.507         30317
        2.455       398.052       293.503       30316.7
        2.465       398.051       293.501       30317.1
        2.475       398.051         293.5       30317.5
        2.485       398.046       293.496       30316.5
        2.495        398.04       293.491       30315.5
        2.505       398.038       293.489       30315.5
        2.515       398.039       293.488       30315.9
        2.525       398.037       293.485       30315.7
        2.535        398.03       293.481       30314.2
        2.545       398.027       293.477       30313.9
        2.555       398.028       293.476       30314.4
        2.565       398.028       293.475       30314.8
        2.575       398.022       293.471       30313.5
        2.585       398.015       293.466       30312.5
        2.595       398.014       293.465       30312.7
        2.605       398.015       293.465       30313.6
        2.615       398.011       293.463       30313.3
        2.625           398       293.458       30311.5
        2.635       397.994       293.454       30311.1
        2.645       397.992       293.454       30311.7
        2.655        397.99       293.454       30312.3
        2.665       397.983       293.452       30311.7
        2.675       397.972       293.447       30310.4
        2.685       397.967       293.444       30310.2
        2.695       397.964       293.443       30310.3
        2.705       397.962       293.442       30310.6
        2.715       397.958        293.44       30310.1
        2.725       397.952       293.436       30309.3
        2.735       397.951       293.434       30309.2
        2.745        397.95       293.433       30309.4
        2.755        397.95       293.432       30309.4
        2.765       397.946       293.429       30308.6
        2.775       397.944       293.427       30308.3
        2.785       397.943       293.426       30308.4
        2.795       397.943       293.425       30308.5
        2.805        397.94       293.423         30308
        2.815       397.936        293.42       30307.5
        2.825       397.935       293.419       30307.5
        2.835       397.934       293.418       30307.7
        2.845       397.931       293.417       30307.5
        2.855       397.927       293.414       30306.9
        2.865       397.925       293.413       30306.8
        2.875       397.924       293.412       30306.9
        2.885       397.922       293.411         30307
        2.895       397.919       293.409       30306.4
        2.905       397.916       293.407       30306.1
        2.915       397.915       293.406       30306.2
        2.925       397.914       293.406       30306.3
        2.935       397.912       293.405       30306.1
        2.945       397.909       293.403       30305.6
        2.955       397.907       293.401       30305.6
        2.965       397.906       293.401       30305.7
        2.975       397.905         293.4       30305.7
        2.985       397.902       293.398       30305.3
        2.995         397.9       293.397       30305.1
        3.005       397.899       293.396       30305.1
        3.015       397.898       293.395       30305.2
        3.025       397.896       293.394         30305
        3.035       397.894       293.392       30304.7
        3.045       397.892       293.391       30304.7
        3.055       397.891       293.391       30304.7
        3.065        397.89        293.39       30304.7
        3.075       397.887       293.388       30304.4
        3.085       397.885       293.387       30304.2
        3.095       397.884       293.386       30304.3
        3.105       397.883       293.385       30304.3
        3.115       397.881       293.383       30304.1
        3.125       397.878       293.381       30303.8
        3.135       397.877        293.38       30303.8
        3.145       397.877       293.379       30303.9
        3.155       397.875       293.377       30303.7
        3.165       397.872       293.374       30303.3
        3.175       397.871       293.372       30303.2
        3.185        397.87       293.371       30303.3
        3.195        397.87       293.369       30303.2
        3.205       397.866       293.366       30302.7
        3.215       397.864       293.363       30302.5
        3.225       397.863       293.361       30302.4
        3.235       397.862       293.358       30302.5
        3.245        397.86       293.355       30302.1
        3.255       397.856        293.35       30301.4
        3.265       397.854       293.346       30301.3
        3.275       397.853       293.343       30301.3
        3.285       397.852       293.339       30301.4
        3.295       397.847       293.333       30300.3
        3.305       397.843       293.327       30299.5
        3.315       397.841       293.321       30299.3
        3.325        397.84       293.316       30299.3
        3.335       397.839       293.311       30299.5
        3.345       397.834       293.302       30298.2
        3.355       397.826       293.291       30296.7
        3.365       397.824       293.282       30296.4
        3.375       397.823       293.275       30296.4
        3.385       397.823       293.267       30296.6
        3.395       397.817       293.254       30294.9
        3.405       397.808       293.239       30292.9
        3.415       397.806       293.227       30292.7
        3.425       397.806       293.216       30292.9
        3.435       397.803       293.201       30291.9
        3.445       397.788        293.18       30288.5
        3.455       397.784       293.161       30287.8
        3.465       397.784       293.145       30288.1
        3.475       397.781       293.123       30287.1
        3.485       397.761       293.094       30282.3
        3.495       397.756       293.066       30281.2
        3.505       397.756       293.042       30281.5
        3.515       397.753       293.012       30280.2
        3.525       397.724        292.97       30273.2
        3.535       397.716       292.929       30271.2
        3.545       397.716       292.896       30271.4
        3.555       397.715       292.855       30270.8
        3.565       397.677       292.795       30260.9
        3.575       397.655       292.732       30256.1
        3.585       397.653        292.68       30255.5
        3.595       397.657       292.628       30256.6
        3.605       397.625        292.55       30247.3
        3.615       397.564       292.451       30233.1
        3.625       397.552       292.364       30230.4
        3.635       397.552        292.29       30230.5
        3.645       397.554         292.2       30230.4
        3.655       397.467       292.062       30207.2
        3.665       397.397       291.905       30191.5
        3.675       397.383       291.774         30188
        3.685       397.384       291.654       30188.4
        3.695       397.381       291.504       30186.4
        3.705       397.225       291.269       30145.7
        3.715       397.114       291.009       30120.5
        3.725       397.087       290.786       30113.6
        3.735       397.081       290.576       30112.6
        3.745       397.083       290.321       30111.5
        3.755        396.85       289.916       30049.2
        3.765       396.585       289.414       29988.6
        3.775       396.486       288.921       29964.9
        3.785       396.397       288.387       29944.6
        3.795       396.321       287.735       29928.9
        3.805       396.044       286.739       29853.8
        3.815       395.153       285.217       29640.3
        3.825       394.478       283.309       29488.4
        3.835       393.891       280.955       29351.7
        3.845       392.957       277.671       29135.8
        3.855       391.335       272.642       28759.6
        3.865       388.295       264.458       28051.7
        3.875       383.099        250.95       26887.8
        3.885       374.491       225.532       24940.5
        3.895        352.84       163.645       20275.9
        3.905        297.34       61.2062       12217.6
        3.915       281.883       10.2322       10397.4
        3.925       279.222       1.58752       10059.8
        3.935       278.817       0.23413       10008.8
        3.945       278.756     0.0344079       10001.3
        3.955       278.748    0.00504998       10000.2
        3.965       278.746   0.000740577         10000
        3.975       278.746   0.000108597         10000
        3.985       278.746   1.59241e-05         10000
        3.995       278.746   2.33508e-06         10000
        4.005       278.746   3.42425e-07         10000
        4.015       278.746   5.02192e-08         10000
        4.025       278.746   7.36899e-09         10000
        4.035       278.746   1.08575e-09         10000
        4.045       278.746   1.64507e-10         10000
        4.055       278.746   2.86597e-11         10000
        4.065       278.746   9.20751e-12         10000
        4.075       278.746   4.83715e-12         10000
        4.085       278.746   5.30249e-12         10000
        4.095       278.746   4.43309e-12         10000
        4.105       278.746   3.32445e-12         10000
        4.115       278.746   3.30694e-12         10000
        4.125       278.746   3.49366e-12         10000
        4.135       278.746    4.7117e-12         10000
        4.145       278.746   4.66502e-12         10000
        4.155       278.746   4.61105e-12         10000
        4.165       278.746   4.10633e-12         10000
        4.175       278.746   5.07784e-12         10000
        4.185       278.746   6.90126e-12         10000
        4.195       278.746   6.66932e-12         10000
        4.205       278.746   7.34763e-12         10000
        4.215       278.746   5.55339e-12         10000
        4.225       278.746   6.31777e-12         10000
        4.235       278.746   6.77435e-12         10000
        4.245       278.746   5.08806e-12         10000
        4.255       278.746   5.60591e-12         10000
        4.265       278.746   4.95385e-12         10000
        4.275       278.746   6.24045e-12         10000
        4.285       278.746   6.34548e-12         10000
        4.295       278.746   6.48844e-12         10000
        4.305       278.746   7.26303e-12         10000
        4.315       278.746   5.33458e-12         10000
        4.325       278.746   6.05082e-12         10000
        4.335       278.746   6.26671e-12         10000
        4.345       278.746   6.39946e-12         10000
        4.355       278.746   5.62487e-12         10000
        4.365       278.746   6.67953e-12         10000
        4.375       278.746   5.30103e-12         10000
        4.385       278.746   6.26671e-12         10000
        4.395       278.746   5.39731e-12         10000
        4.405       278.746   7.34617e-12         10000
        4.415       278.746   6.83416e-12         10000
        4.425       278.746   6.56138e-12         10000
        4.435       278.746   6.30318e-12         10000
        4.445       278.746   6.34257e-12         10000
        4.455       278.746   5.31416e-12         10000
        4.465       278.746   4.12967e-12         10000
        4.475       278.746   4.51477e-12         10000
        4.485       278.746   3.48199e-12         10000
        4.495       278.746   3.34925e-12         10000
        4.505       278.746   2.22894e-12         10000
        4.515       278.746   4.24929e-12         10000
        4.525       278.746   4.90863e-12         10000
        4.535       278.746   4.30326e-12         10000
        4.545       278.746   3.62932e-12         10000
        4.555       278.746   4.08299e-12         10000
        4.565       278.746   5.04138e-12         10000
        4.575       278.746   5.85973e-12         10000
        4.585       278.746   5.59861e-12         10000
        4.595       278.746   4.77589e-12         10000
        4.605       278.746   5.77366e-12         10000
        4.615       278.746   7.10548e-12         10000
        4.625       278.746   7.38556e-12         10000
        4.635       278.746   8.80199e-12         10000
        4.645       278.746    7.4585e-12         10000
        4.655       278.746   8.71592e-12         10000
        4.665       278.746   7.30533e-12         10000
        4.675       278.746   8.33373e-12         10000
        4.685       278.746   8.93765e-12         10000
        4.695       278.746   8.73489e-12         10000
        4.705       278.746   9.12583e-12         10000
        4.715       278.746   9.20897e-12         10000
        4.725       278.746   1.01922e-11         10000
        4.735       278.746   1.04722e-11         10000
        4.745       278.746   1.09755e-11         10000
        4.755       278.746   9.77496e-12         10000
        4.765       278.746   9.51677e-12         10000
        4.775       278.746   9.47592e-12         10000
        4.785       278.746   7.73128e-12         10000
        4.795       278.746   8.24913e-12         10000
        4.805       278.746   8.42418e-12         10000
        4.815       278.746   8.26809e-12         10000
        4.825       278.746   8.18786e-12         10000
        4.835       278.746   7.87132e-12         10000
        4.845       278.746   7.85673e-12         10000
        4.855       278.746   7.26886e-12         10000
        4.865       278.746   8.98287e-12         10000
        4.875       278.746    8.2535e-12         10000
        4.885       278.746   8.98287e-12         10000
        4.895       278.746    8.9041e-12         10000
        4.905       278.746   1.08953e-11         10000
        4.915       278.746   8.35124e-12         10000
        4.925       278.746   7.51976e-12         10000
        4.935       278.746   7.89757e-12         10000
        4.945       278.746   6.90272e-12         10000
        4.955       278.746   6.68537e-12         10000
        4.965       278.746   4.93781e-12         10000
        4.975       278.746    6.4651e-12         10000
        4.985       278.746   5.89619e-12         10000
        4.995       278.746   6.01727e-12         10000
